Time [sec]	P [hPa]	T [°C]	Hu [%]	Ws [m/s]	Wd [°]	Alt [m]	Geopot [m]	Lon [°]   	Lat [°]   	Dew [°C]	Vi Te [°C]	RI    	MRI    	Rs [m/s]	Elevation [°]	Azimuth [°]	Range [m]	D [kg/m3]
0         	984.5  	5.2   	63    	0.0     	000   	26     	26        	-58.965700	-62.201600	-1.2    	5.8       	277.50	281.58 	0.0     	62.2         	180        	1        	0.078862 
2         	982.7  	4.9   	57    	0.1     	305   	41     	41        	-58.965678	-62.201608	-2.9    	5.4       	277.02	283.41 	7.3     	84.0         	136        	15       	0.071439 
4         	981.0  	4.6   	51    	0.1     	305   	55     	55        	-58.965657	-62.201615	-4.6    	5.1       	276.54	285.22 	7.3     	84.3         	132        	30       	0.064000 
6         	979.2  	4.3   	45    	0.2     	305   	70     	70        	-58.965635	-62.201623	-6.5    	4.7       	276.06	287.05 	7.3     	84.4         	130        	45       	0.056544 
8         	977.4  	4.0   	44    	0.2     	305   	85     	85        	-58.965614	-62.201630	-7.0    	4.4       	275.84	289.14 	7.3     	84.4         	129        	60       	0.055839 
10        	975.7  	3.7   	46    	0.3     	305   	99     	100       	-58.965592	-62.201638	-6.8    	4.1       	275.74	291.33 	7.3     	84.4         	129        	74       	0.058065 
12        	973.9  	3.4   	48    	0.3     	305   	114    	114       	-58.965571	-62.201645	-6.6    	3.8       	275.63	293.53 	7.3     	84.5         	128        	89       	0.060296 
14        	972.1  	3.1   	50    	0.4     	305   	129    	129       	-58.965549	-62.201653	-6.4    	3.5       	275.53	295.74 	7.3     	84.5         	128        	104      	0.062532 
16        	970.4  	2.8   	51    	0.4     	305   	143    	144       	-58.965536	-62.201663	-6.2    	3.2       	275.43	297.93 	7.3     	84.5         	131        	118      	0.064773 
18        	968.7  	2.5   	53    	0.5     	305   	158    	158       	-58.965540	-62.201680	-6.1    	2.9       	275.33	300.08 	7.1     	84.6         	138        	133      	0.067019 
20        	967.0  	2.2   	55    	0.5     	305   	171    	172       	-58.965544	-62.201696	-6.0    	2.6       	275.26	302.17 	6.9     	84.6         	144        	147      	0.069270 
22        	965.3  	1.9   	56    	0.6     	305   	185    	185       	-58.965548	-62.201713	-5.9    	2.3       	275.17	304.24 	6.9     	84.6         	148        	161      	0.071078 
24        	963.7  	1.5   	57    	0.6     	305   	199    	199       	-58.965552	-62.201729	-5.9    	2.0       	275.07	306.32 	6.9     	84.5         	152        	174      	0.072824 
26        	962.0  	1.2   	59    	0.7     	305   	213    	213       	-58.965556	-62.201746	-5.9    	1.7       	274.98	308.39 	6.9     	84.5         	156        	188      	0.074575 
28        	960.4  	0.9   	60    	0.7     	305   	227    	227       	-58.965560	-62.201763	-5.9    	1.4       	274.89	310.46 	6.9     	84.4         	158        	202      	0.076329 
30        	958.7  	0.6   	61    	0.8     	305   	240    	241       	-58.965563	-62.201779	-5.9    	1.1       	274.79	312.54 	6.9     	84.3         	161        	216      	0.078088 
32        	957.1  	0.3   	63    	0.8     	309   	254    	255       	-58.965567	-62.201796	-5.9    	0.8       	274.70	314.61 	6.9     	84.2         	163        	230      	0.079850 
34        	955.4  	0.0   	64    	0.8     	313   	268    	268       	-58.965571	-62.201812	-5.9    	0.4       	274.61	316.67 	6.9     	84.1         	164        	244      	0.081565 
36        	953.8  	-0.3  	65    	0.9     	317   	282    	282       	-58.965575	-62.201829	-6.1    	0.1       	274.49	318.72 	6.9     	84.1         	166        	258      	0.082761 
38        	952.2  	-0.6  	66    	0.9     	320   	296    	296       	-58.965579	-62.201845	-6.2    	-0.2      	274.38	320.77 	6.9     	84.0         	167        	272      	0.083960 
40        	950.5  	-0.9  	67    	0.9     	324   	309    	310       	-58.965583	-62.201862	-6.3    	-0.5      	274.26	322.82 	6.9     	83.9         	168        	285      	0.085162 
42        	948.9  	-1.1  	67    	1.0     	327   	323    	324       	-58.965587	-62.201879	-6.3    	-0.7      	274.04	324.77 	6.9     	83.9         	169        	299      	0.086332 
44        	947.4  	-1.2  	68    	1.0     	330   	337    	337       	-58.965591	-62.201895	-6.3    	-0.8      	273.78	326.68 	6.9     	83.8         	170        	313      	0.087474 
46        	946.0  	-1.3  	69    	1.0     	333   	349    	349       	-58.965574	-62.201921	-6.2    	-0.9      	273.53	328.27 	5.9     	83.5         	170        	325      	0.088618 
48        	944.6  	-1.4  	70    	1.1     	335   	359    	360       	-58.965555	-62.201948	-6.1    	-1.0      	273.27	329.66 	5.3     	83.2         	169        	336      	0.089693 
50        	943.3  	-1.5  	70    	1.1     	338   	370    	370       	-58.965535	-62.201975	-6.1    	-1.1      	273.03	331.08 	5.3     	82.9         	168        	347      	0.090400 
52        	942.1  	-1.6  	71    	1.1     	340   	380    	381       	-58.965516	-62.202002	-6.1    	-1.2      	272.78	332.49 	5.3     	82.6         	168        	358      	0.091105 
54        	940.8  	-1.7  	72    	1.2     	342   	391    	391       	-58.965497	-62.202029	-6.1    	-1.2      	272.54	333.91 	5.3     	82.3         	168        	369      	0.091811 
56        	939.6  	-1.7  	72    	1.2     	344   	401    	402       	-58.965477	-62.202055	-6.1    	-1.3      	272.29	335.31 	5.3     	82.1         	167        	380      	0.092517 
58        	938.3  	-1.8  	73    	1.2     	345   	412    	413       	-58.965458	-62.202082	-6.1    	-1.4      	272.05	336.73 	5.3     	81.8         	167        	391      	0.093223 
60        	937.1  	-1.9  	73    	1.3     	347   	423    	423       	-58.965438	-62.202109	-6.1    	-1.5      	271.80	338.15 	5.3     	81.6         	167        	401      	0.093930 
62        	935.8  	-2.0  	74    	1.3     	347   	433    	434       	-58.965419	-62.202136	-6.0    	-1.6      	271.56	339.56 	5.3     	81.4         	166        	412      	0.094638 
64        	934.6  	-2.1  	74    	1.3     	346   	444    	444       	-58.965399	-62.202163	-6.1    	-1.7      	271.31	340.97 	5.3     	81.2         	166        	423      	0.095132 
66        	933.4  	-2.2  	74    	1.3     	346   	454    	455       	-58.965380	-62.202190	-6.1    	-1.8      	271.08	342.38 	5.3     	81.0         	166        	434      	0.095626 
68        	932.1  	-2.3  	75    	1.4     	346   	465    	465       	-58.965361	-62.202217	-6.1    	-1.9      	270.84	343.81 	5.3     	80.8         	166        	445      	0.096121 
70        	930.9  	-2.4  	75    	1.4     	346   	475    	476       	-58.965341	-62.202244	-6.2    	-2.0      	270.60	345.22 	5.3     	80.6         	165        	456      	0.096616 
72        	929.6  	-2.5  	75    	1.4     	345   	486    	487       	-58.965322	-62.202271	-6.2    	-2.1      	270.36	346.65 	5.3     	80.4         	165        	467      	0.097111 
74        	928.4  	-2.6  	76    	1.4     	345   	497    	497       	-58.965302	-62.202298	-6.2    	-2.2      	270.12	348.07 	5.3     	80.3         	165        	478      	0.097606 
76        	927.1  	-2.7  	76    	1.4     	345   	507    	508       	-58.965283	-62.202325	-6.3    	-2.3      	269.88	349.48 	5.3     	80.1         	165        	489      	0.098102 
78        	925.9  	-2.8  	77    	1.5     	345   	518    	519       	-58.965267	-62.202353	-6.3    	-2.4      	269.64	350.95 	5.4     	80.0         	165        	500      	0.098596 
80        	924.6  	-2.9  	77    	1.5     	345   	529    	530       	-58.965254	-62.202382	-6.3    	-2.4      	269.38	352.41 	5.5     	79.8         	165        	512      	0.099088 
82        	923.3  	-3.0  	77    	1.5     	344   	540    	541       	-58.965241	-62.202411	-6.4    	-2.5      	269.12	353.88 	5.5     	79.7         	165        	523      	0.099580 
84        	922.0  	-3.0  	78    	1.5     	344   	551    	552       	-58.965227	-62.202441	-6.4    	-2.6      	268.86	355.35 	5.5     	79.5         	165        	534      	0.100073 
86        	920.8  	-3.1  	78    	1.5     	344   	562    	563       	-58.965214	-62.202470	-6.4    	-2.7      	268.60	356.82 	5.5     	79.4         	165        	546      	0.100566 
88        	919.5  	-3.2  	78    	1.6     	344   	573    	574       	-58.965200	-62.202499	-6.4    	-2.8      	268.34	358.28 	5.5     	79.3         	165        	557      	0.101059 
90        	918.2  	-3.3  	79    	1.6     	344   	584    	585       	-58.965187	-62.202528	-6.5    	-2.9      	268.08	359.75 	5.5     	79.1         	166        	569      	0.101530 
92        	916.9  	-3.4  	79    	1.6     	345   	595    	596       	-58.965174	-62.202557	-6.5    	-3.0      	267.82	361.22 	5.5     	79.0         	166        	580      	0.101758 
94        	915.6  	-3.5  	79    	1.6     	346   	606    	607       	-58.965160	-62.202586	-6.6    	-3.1      	267.56	362.68 	5.5     	78.9         	166        	592      	0.101987 
96        	914.4  	-3.6  	79    	1.6     	347   	617    	618       	-58.965147	-62.202616	-6.7    	-3.2      	267.30	364.15 	5.5     	78.8         	166        	603      	0.102217 
98        	913.1  	-3.7  	79    	1.6     	348   	628    	629       	-58.965133	-62.202645	-6.8    	-3.3      	267.04	365.62 	5.5     	78.7         	166        	614      	0.102447 
100       	911.8  	-3.8  	79    	1.7     	349   	639    	640       	-58.965120	-62.202674	-6.8    	-3.4      	266.78	367.11 	5.5     	78.6         	166        	626      	0.102677 
102       	910.5  	-3.9  	80    	1.7     	350   	650    	651       	-58.965107	-62.202703	-6.9    	-3.5      	266.53	368.58 	5.5     	78.5         	166        	637      	0.102908 
104       	909.2  	-4.0  	80    	1.7     	351   	661    	662       	-58.965093	-62.202732	-7.0    	-3.6      	266.25	370.03 	5.5     	78.4         	166        	649      	0.103170 
106       	907.9  	-4.1  	80    	1.7     	352   	673    	674       	-58.965094	-62.202762	-7.0    	-3.7      	265.98	371.61 	5.9     	78.3         	166        	661      	0.103490 
108       	906.5  	-4.2  	80    	1.7     	352   	685    	686       	-58.965103	-62.202792	-7.1    	-3.8      	265.72	373.22 	5.9     	78.3         	167        	673      	0.103809 
110       	905.2  	-4.3  	80    	1.7     	353   	697    	698       	-58.965112	-62.202822	-7.2    	-3.9      	265.44	374.81 	5.9     	78.2         	167        	686      	0.104130 
112       	903.8  	-4.4  	81    	1.7     	354   	709    	709       	-58.965121	-62.202852	-7.3    	-4.0      	265.17	376.40 	5.9     	78.2         	168        	698      	0.104450 
114       	902.4  	-4.6  	81    	1.7     	355   	720    	721       	-58.965130	-62.202882	-7.3    	-4.2      	264.90	378.00 	5.9     	78.1         	168        	710      	0.104771 
116       	901.1  	-4.7  	81    	1.7     	356   	732    	733       	-58.965139	-62.202912	-7.4    	-4.3      	264.62	379.59 	5.9     	78.1         	169        	723      	0.105092 
118       	899.7  	-4.8  	81    	1.7     	357   	744    	745       	-58.965148	-62.202942	-7.5    	-4.4      	264.35	381.19 	5.9     	78.0         	169        	735      	0.105445 
120       	898.3  	-4.9  	81    	1.7     	358   	756    	757       	-58.965157	-62.202972	-7.5    	-4.5      	264.07	382.78 	5.9     	78.0         	170        	747      	0.105843 
122       	897.0  	-5.0  	82    	1.7     	359   	768    	769       	-58.965165	-62.203001	-7.6    	-4.6      	263.80	384.37 	5.9     	77.9         	170        	759      	0.106241 
124       	895.6  	-5.1  	82    	1.7     	360   	780    	781       	-58.965174	-62.203031	-7.6    	-4.7      	263.52	385.97 	5.9     	77.9         	170        	772      	0.106640 
126       	894.3  	-5.2  	82    	1.7     	001   	792    	793       	-58.965183	-62.203061	-7.7    	-4.8      	263.25	387.56 	5.9     	77.8         	171        	784      	0.107039 
128       	892.9  	-5.3  	83    	1.8     	002   	804    	805       	-58.965192	-62.203091	-7.8    	-4.9      	262.97	389.16 	5.9     	77.8         	171        	796      	0.107438 
130       	891.6  	-5.4  	83    	1.8     	003   	816    	817       	-58.965201	-62.203121	-7.8    	-5.0      	262.70	390.75 	5.9     	77.7         	171        	809      	0.107838 
132       	890.2  	-5.5  	83    	1.7     	006   	828    	829       	-58.965210	-62.203151	-7.9    	-5.1      	262.42	392.34 	5.9     	77.7         	172        	821      	0.108142 
134       	888.9  	-5.6  	83    	1.7     	010   	839    	841       	-58.965219	-62.203181	-8.0    	-5.2      	262.12	393.91 	5.9     	77.6         	172        	833      	0.108283 
136       	887.5  	-5.7  	83    	1.7     	014   	851    	852       	-58.965228	-62.203211	-8.0    	-5.3      	261.81	395.47 	5.9     	77.6         	172        	846      	0.108423 
138       	886.2  	-5.7  	83    	1.6     	018   	863    	864       	-58.965277	-62.203213	-8.1    	-5.4      	261.51	397.03 	6.0     	77.8         	173        	857      	0.108563 
140       	884.8  	-5.8  	83    	1.6     	023   	875    	876       	-58.965327	-62.203214	-8.2    	-5.5      	261.21	398.60 	6.0     	78.0         	174        	869      	0.108704 
142       	883.5  	-5.9  	83    	1.6     	027   	887    	888       	-58.965378	-62.203215	-8.2    	-5.5      	260.90	400.16 	6.0     	78.1         	175        	880      	0.108844 
144       	882.1  	-6.0  	84    	1.6     	032   	899    	900       	-58.965428	-62.203216	-8.3    	-5.6      	260.60	401.73 	6.0     	78.3         	176        	892      	0.108985 
146       	880.8  	-6.1  	84    	1.5     	037   	911    	912       	-58.965479	-62.203217	-8.4    	-5.7      	260.29	403.29 	6.0     	78.4         	176        	904      	0.108944 
148       	879.4  	-6.2  	83    	1.5     	042   	923    	924       	-58.965529	-62.203219	-8.5    	-5.8      	260.00	404.86 	6.0     	78.6         	177        	915      	0.108811 
150       	878.1  	-6.3  	83    	1.5     	047   	935    	936       	-58.965580	-62.203220	-8.6    	-5.9      	259.71	406.44 	6.0     	78.7         	178        	927      	0.108679 
152       	876.8  	-6.4  	83    	1.5     	053   	947    	948       	-58.965631	-62.203221	-8.8    	-6.0      	259.41	408.01 	6.0     	78.9         	179        	939      	0.108547 
154       	875.4  	-6.5  	83    	1.5     	061   	958    	960       	-58.965681	-62.203222	-8.9    	-6.1      	259.12	409.59 	6.0     	79.0         	180        	950      	0.108414 
156       	874.1  	-6.6  	83    	1.6     	069   	970    	972       	-58.965732	-62.203223	-9.0    	-6.2      	258.83	411.16 	6.0     	79.1         	181        	962      	0.108281 
158       	872.8  	-6.7  	83    	1.6     	077   	982    	984       	-58.965782	-62.203224	-9.1    	-6.4      	258.53	412.74 	6.0     	79.3         	181        	974      	0.108148 
160       	871.4  	-6.8  	82    	1.6     	085   	994    	995       	-58.965833	-62.203225	-9.3    	-6.4      	258.21	414.29 	6.0     	79.4         	182        	986      	0.107709 
162       	870.1  	-6.9  	82    	1.6     	093   	1006   	1007      	-58.965883	-62.203226	-9.4    	-6.5      	257.87	415.83 	6.0     	79.5         	183        	997      	0.107237 
164       	868.8  	-6.9  	82    	1.7     	100   	1018   	1019      	-58.965934	-62.203227	-9.5    	-6.6      	257.53	417.36 	6.0     	79.6         	184        	1009     	0.106766 
166       	867.4  	-7.0  	81    	1.7     	106   	1030   	1031      	-58.965985	-62.203228	-9.7    	-6.7      	257.19	418.88 	6.0     	79.7         	185        	1021     	0.106294 
168       	866.1  	-7.1  	81    	1.7     	112   	1042   	1043      	-58.966078	-62.203185	-9.8    	-6.7      	256.85	420.42 	6.0     	80.1         	186        	1032     	0.105822 
170       	864.8  	-7.1  	80    	1.7     	117   	1054   	1055      	-58.966173	-62.203141	-9.9    	-6.8      	256.50	421.96 	6.0     	80.4         	188        	1043     	0.105349 
172       	863.5  	-7.2  	80    	1.9     	120   	1066   	1067      	-58.966267	-62.203097	-10.0   	-6.9      	256.16	423.51 	6.0     	80.7         	190        	1054     	0.104880 
174       	862.1  	-7.3  	80    	2.1     	123   	1078   	1079      	-58.966362	-62.203052	-10.2   	-7.0      	255.84	425.07 	6.0     	81.0         	192        	1065     	0.104433 
176       	860.8  	-7.4  	79    	2.2     	125   	1090   	1091      	-58.966457	-62.203008	-10.3   	-7.1      	255.52	426.64 	6.0     	81.3         	194        	1077     	0.103988 
178       	859.5  	-7.5  	79    	2.4     	127   	1102   	1103      	-58.966552	-62.202963	-10.5   	-7.2      	255.21	428.21 	6.0     	81.6         	196        	1088     	0.103543 
180       	858.1  	-7.6  	79    	2.5     	129   	1114   	1115      	-58.966647	-62.202919	-10.6   	-7.2      	254.89	429.79 	6.0     	81.9         	199        	1100     	0.103098 
182       	856.8  	-7.7  	78    	2.7     	130   	1126   	1127      	-58.966742	-62.202874	-10.8   	-7.3      	254.58	431.36 	6.0     	82.1         	201        	1111     	0.102652 
184       	855.5  	-7.8  	78    	2.8     	132   	1138   	1139      	-58.966837	-62.202830	-10.9   	-7.4      	254.26	432.93 	6.0     	82.3         	203        	1123     	0.102206 
186       	854.2  	-7.8  	77    	3.0     	133   	1150   	1151      	-58.966932	-62.202785	-11.1   	-7.5      	253.92	434.47 	6.0     	82.5         	206        	1134     	0.101191 
188       	852.8  	-7.9  	76    	3.1     	134   	1162   	1164      	-58.967027	-62.202741	-11.4   	-7.6      	253.51	435.94 	6.0     	82.7         	208        	1146     	0.099562 
190       	851.5  	-7.9  	75    	3.3     	135   	1174   	1176      	-58.967122	-62.202696	-11.6   	-7.6      	253.10	437.41 	6.0     	82.9         	211        	1157     	0.097932 
192       	850.2  	-8.0  	73    	3.5     	135   	1186   	1188      	-58.967217	-62.202652	-11.9   	-7.7      	252.68	438.88 	6.0     	83.0         	214        	1169     	0.096302 
194       	848.9  	-8.0  	72    	3.8     	135   	1198   	1200      	-58.967312	-62.202607	-12.1   	-7.7      	252.27	440.35 	6.0     	83.2         	217        	1181     	0.094671 
196       	847.6  	-8.0  	71    	4.0     	135   	1210   	1212      	-58.967407	-62.202563	-12.4   	-7.8      	251.85	441.84 	6.0     	83.3         	220        	1193     	0.093040 
198       	846.2  	-8.1  	70    	4.2     	136   	1222   	1224      	-58.967545	-62.202490	-12.6   	-7.8      	251.44	443.34 	6.1     	83.4         	224        	1205     	0.091409 
200       	844.9  	-8.1  	68    	4.4     	136   	1235   	1236      	-58.967686	-62.202416	-13.0   	-7.8      	250.96	444.78 	6.1     	83.5         	229        	1217     	0.088979 
202       	843.6  	-8.1  	66    	4.7     	136   	1247   	1248      	-58.967827	-62.202342	-13.3   	-7.8      	250.42	446.17 	6.1     	83.5         	233        	1229     	0.086295 
204       	842.3  	-8.0  	64    	4.9     	136   	1259   	1261      	-58.967968	-62.202268	-13.7   	-7.8      	249.89	447.55 	6.1     	83.5         	238        	1241     	0.083611 
206       	840.9  	-8.0  	62    	5.1     	136   	1271   	1273      	-58.968108	-62.202193	-14.0   	-7.7      	249.35	448.95 	6.1     	83.5         	242        	1254     	0.080928 
208       	839.6  	-7.9  	60    	5.3     	136   	1284   	1285      	-58.968249	-62.202119	-14.4   	-7.7      	248.82	450.33 	6.1     	83.4         	246        	1266     	0.078246 
210       	838.3  	-7.9  	58    	5.6     	136   	1296   	1297      	-58.968390	-62.202045	-14.8   	-7.7      	248.28	451.71 	6.1     	83.3         	250        	1279     	0.075565 
212       	837.0  	-7.9  	56    	5.5     	136   	1308   	1310      	-58.968531	-62.201971	-15.1   	-7.6      	247.76	453.11 	6.1     	83.2         	254        	1292     	0.073054 
214       	835.6  	-7.8  	56    	5.5     	137   	1320   	1322      	-58.968671	-62.201897	-15.0   	-7.6      	247.40	454.67 	6.1     	83.0         	258        	1304     	0.073882 
216       	834.3  	-7.9  	57    	5.4     	138   	1333   	1334      	-58.968812	-62.201823	-14.9   	-7.6      	247.06	456.26 	6.1     	82.8         	261        	1317     	0.074715 
