Time [sec]	P [hPa]	T [°C]	Hu [%]	Ws [m/s]	Wd [°]	Alt [m]	Geopot [m]	Lon [°]   	Lat [°]   	Dew [°C]	Vi Te [°C]	RI    	MRI    	Rs [m/s]	Elevation [°]	Azimuth [°]	Range [m]	D [kg/m3]
0         	953.9  	25.2  	26    	1.0     	320   	527    	527       	-70.682786	-33.445119	4.4     	26.2      	249.20	331.94 	0.0     	33.4         	180        	0        	0.030364 
2         	951.8  	25.0  	27    	1.1     	308   	542    	542       	-70.682724	-33.445101	4.5     	26.0      	248.89	333.92 	7.3     	68.0         	074        	16       	0.031114 
4         	949.8  	24.7  	27    	1.3     	296   	556    	556       	-70.682663	-33.445082	4.6     	25.7      	248.58	335.90 	7.3     	67.7         	072        	32       	0.031865 
6         	947.7  	24.5  	28    	1.4     	285   	571    	570       	-70.682601	-33.445064	4.7     	25.5      	248.27	337.87 	7.3     	67.5         	071        	48       	0.032617 
8         	945.7  	24.3  	28    	1.6     	275   	585    	585       	-70.682539	-33.445045	4.7     	25.3      	247.87	339.77 	7.3     	67.5         	071        	63       	0.032873 
10        	943.6  	24.2  	28    	1.7     	268   	600    	599       	-70.682478	-33.445027	4.6     	25.2      	247.46	341.65 	7.3     	67.5         	071        	79       	0.032840 
12        	941.6  	24.0  	28    	1.8     	261   	615    	614       	-70.682416	-33.445009	4.4     	25.0      	247.06	343.53 	7.3     	67.5         	071        	95       	0.032807 
14        	939.6  	23.9  	28    	2.0     	256   	629    	628       	-70.682354	-33.444990	4.3     	24.9      	246.65	345.40 	7.3     	67.4         	071        	111      	0.032774 
16        	937.9  	23.7  	28    	2.1     	252   	644    	643       	-70.682306	-33.444967	4.1     	24.7      	246.32	347.35 	7.2     	67.8         	070        	126      	0.032741 
18        	936.7  	23.6  	28    	2.3     	248   	655    	654       	-70.682296	-33.444929	4.0     	24.5      	246.13	349.00 	5.9     	68.7         	065        	138      	0.032708 
20        	935.5  	23.5  	28    	2.4     	246   	667    	666       	-70.682286	-33.444891	3.9     	24.4      	245.90	350.60 	5.9     	69.4         	062        	150      	0.032669 
22        	934.3  	23.4  	28    	2.5     	243   	679    	678       	-70.682277	-33.444852	3.9     	24.4      	245.67	352.22 	5.9     	69.9         	058        	162      	0.032897 
24        	933.1  	23.3  	28    	2.7     	241   	690    	690       	-70.682267	-33.444814	3.9     	24.3      	245.43	353.83 	5.9     	70.3         	055        	174      	0.033154 
26        	931.9  	23.2  	28    	2.8     	239   	702    	701       	-70.682257	-33.444776	3.9     	24.2      	245.20	355.43 	5.9     	70.5         	053        	186      	0.033410 
28        	930.7  	23.1  	29    	3.0     	238   	714    	713       	-70.682247	-33.444738	4.0     	24.1      	244.97	357.05 	5.9     	70.8         	050        	198      	0.033666 
30        	929.5  	23.0  	29    	3.1     	237   	726    	725       	-70.682237	-33.444700	4.0     	24.0      	244.75	358.67 	5.9     	70.9         	048        	210      	0.033923 
32        	928.4  	22.9  	29    	3.0     	235   	737    	737       	-70.682227	-33.444662	4.0     	23.9      	244.56	360.33 	5.9     	71.0         	046        	223      	0.034182 
34        	927.3  	22.8  	29    	3.1     	233   	749    	748       	-70.682218	-33.444624	4.0     	23.8      	244.37	361.98 	5.9     	71.1         	044        	235      	0.034432 
36        	926.1  	22.7  	29    	3.1     	231   	761    	760       	-70.682208	-33.444586	4.0     	23.7      	244.19	363.63 	5.9     	71.2         	042        	247      	0.034632 
38        	925.0  	22.6  	30    	3.0     	228   	773    	772       	-70.682198	-33.444548	3.9     	23.5      	244.00	365.30 	5.9     	71.3         	041        	260      	0.034833 
40        	923.9  	22.4  	30    	3.0     	226   	784    	783       	-70.682188	-33.444510	3.9     	23.4      	243.82	366.95 	5.9     	71.3         	040        	272      	0.035034 
42        	922.8  	22.3  	30    	3.0     	224   	796    	795       	-70.682178	-33.444472	3.9     	23.3      	243.63	368.61 	5.9     	71.3         	038        	284      	0.035234 
44        	921.7  	22.2  	30    	3.0     	222   	808    	807       	-70.682168	-33.444434	3.8     	23.2      	243.45	370.27 	5.9     	71.3         	037        	297      	0.035435 
46        	920.6  	22.1  	30    	3.0     	220   	820    	819       	-70.682154	-33.444396	3.8     	23.1      	243.26	371.92 	5.9     	71.3         	036        	309      	0.035634 
48        	919.5  	22.0  	30    	3.0     	217   	830    	829       	-70.682126	-33.444358	3.8     	22.9      	243.07	373.32 	5.0     	71.0         	036        	320      	0.035789 
50        	918.4  	21.9  	30    	2.9     	215   	840    	839       	-70.682098	-33.444320	3.7     	22.8      	242.88	374.71 	5.0     	70.8         	036        	331      	0.035894 
52        	917.3  	21.7  	30    	2.9     	213   	850    	849       	-70.682070	-33.444282	3.7     	22.7      	242.69	376.10 	5.0     	70.6         	036        	343      	0.035998 
54        	916.2  	21.6  	31    	2.9     	210   	860    	859       	-70.682042	-33.444244	3.6     	22.6      	242.49	377.50 	5.0     	70.4         	036        	354      	0.036103 
56        	915.1  	21.5  	31    	2.9     	208   	870    	869       	-70.682014	-33.444207	3.5     	22.5      	242.30	378.89 	5.0     	70.2         	035        	365      	0.036207 
58        	914.0  	21.4  	31    	2.9     	206   	880    	879       	-70.681986	-33.444169	3.5     	22.4      	242.11	380.28 	5.0     	70.0         	035        	376      	0.036310 
60        	913.0  	21.3  	31    	2.9     	204   	890    	889       	-70.681958	-33.444131	3.4     	22.3      	241.91	381.67 	5.0     	69.8         	035        	387      	0.036413 
62        	912.0  	21.2  	31    	2.8     	204   	900    	899       	-70.681930	-33.444093	3.4     	22.2      	241.72	383.07 	5.0     	69.6         	035        	398      	0.036578 
64        	910.9  	21.1  	31    	2.8     	205   	910    	909       	-70.681902	-33.444055	3.4     	22.1      	241.53	384.46 	5.0     	69.5         	035        	410      	0.036764 
66        	909.9  	21.0  	31    	2.7     	205   	921    	919       	-70.681874	-33.444018	3.4     	22.0      	241.34	385.86 	5.0     	69.3         	035        	421      	0.036949 
68        	908.8  	20.9  	31    	2.6     	206   	931    	929       	-70.681846	-33.443980	3.4     	21.9      	241.15	387.26 	5.0     	69.2         	035        	432      	0.037135 
70        	907.8  	20.8  	31    	2.6     	206   	941    	940       	-70.681818	-33.443942	3.3     	21.8      	240.97	388.66 	5.0     	69.1         	035        	443      	0.037321 
72        	906.8  	20.7  	32    	2.5     	207   	951    	950       	-70.681789	-33.443904	3.3     	21.7      	240.80	390.07 	5.0     	68.9         	035        	454      	0.037507 
74        	905.8  	20.7  	32    	2.4     	207   	961    	960       	-70.681761	-33.443866	3.3     	21.6      	240.63	391.49 	5.0     	68.8         	035        	466      	0.037690 
76        	904.9  	20.6  	32    	2.4     	208   	971    	970       	-70.681735	-33.443830	3.2     	21.5      	240.45	392.88 	5.0     	68.7         	034        	477      	0.037760 
78        	903.9  	20.5  	32    	2.3     	208   	981    	979       	-70.681715	-33.443797	3.2     	21.4      	240.27	394.23 	4.9     	68.7         	034        	487      	0.037831 
80        	902.9  	20.4  	32    	2.3     	209   	990    	989       	-70.681694	-33.443764	3.1     	21.3      	240.10	395.59 	4.9     	68.7         	034        	498      	0.037901 
82        	901.9  	20.3  	32    	2.2     	210   	1000   	999       	-70.681673	-33.443732	3.1     	21.2      	239.88	396.90 	4.9     	68.6         	034        	508      	0.037965 
84        	900.9  	20.3  	32    	2.1     	211   	1010   	1009      	-70.681652	-33.443699	3.1     	21.2      	239.65	398.20 	4.9     	68.6         	034        	519      	0.038029 
86        	899.8  	20.2  	32    	2.1     	211   	1020   	1018      	-70.681631	-33.443666	3.1     	21.1      	239.41	399.49 	4.9     	68.6         	034        	529      	0.038093 
88        	898.8  	20.2  	32    	2.0     	212   	1029   	1028      	-70.681610	-33.443633	3.0     	21.1      	239.17	400.79 	4.9     	68.6         	034        	540      	0.038156 
90        	897.7  	20.1  	32    	2.0     	213   	1039   	1038      	-70.681590	-33.443601	3.0     	21.0      	238.94	402.09 	4.9     	68.5         	034        	551      	0.038213 
92        	896.6  	20.1  	32    	2.0     	212   	1049   	1048      	-70.681569	-33.443568	3.0     	21.0      	238.70	403.38 	4.9     	68.5         	033        	561      	0.038270 
94        	895.6  	20.0  	32    	2.0     	212   	1059   	1057      	-70.681548	-33.443535	2.9     	20.9      	238.49	404.70 	4.9     	68.5         	033        	572      	0.038332 
96        	894.5  	19.9  	32    	2.1     	211   	1068   	1067      	-70.681527	-33.443502	2.9     	20.8      	238.28	406.02 	4.9     	68.5         	033        	582      	0.038393 
98        	893.5  	19.8  	32    	2.1     	210   	1078   	1077      	-70.681506	-33.443470	2.8     	20.7      	238.08	407.36 	4.9     	68.4         	033        	593      	0.038455 
100       	892.5  	19.7  	32    	2.1     	210   	1088   	1087      	-70.681485	-33.443437	2.8     	20.7      	237.88	408.68 	4.9     	68.4         	033        	603      	0.038517 
102       	891.5  	19.7  	32    	2.1     	209   	1098   	1096      	-70.681465	-33.443404	2.7     	20.6      	237.68	410.02 	4.9     	68.4         	033        	614      	0.038516 
104       	890.5  	19.6  	32    	2.2     	208   	1107   	1106      	-70.681444	-33.443371	2.6     	20.5      	237.48	411.34 	4.9     	68.4         	033        	625      	0.038473 
106       	889.5  	19.5  	32    	2.2     	208   	1117   	1116      	-70.681420	-33.443338	2.5     	20.4      	237.26	412.68 	5.0     	68.3         	033        	635      	0.038428 
108       	888.5  	19.4  	32    	2.2     	207   	1128   	1127      	-70.681386	-33.443303	2.5     	20.4      	237.04	414.12 	5.3     	68.3         	033        	647      	0.038382 
110       	887.5  	19.4  	32    	2.3     	207   	1138   	1137      	-70.681351	-33.443268	2.4     	20.3      	236.82	415.55 	5.3     	68.2         	033        	659      	0.038337 
112       	886.4  	19.3  	32    	2.3     	208   	1149   	1148      	-70.681316	-33.443233	2.3     	20.2      	236.59	416.98 	5.3     	68.1         	033        	670      	0.038291 
114       	885.4  	19.3  	32    	2.3     	209   	1160   	1158      	-70.681282	-33.443198	2.2     	20.2      	236.35	418.40 	5.3     	68.1         	033        	682      	0.038245 
116       	884.3  	19.2  	32    	2.4     	210   	1170   	1169      	-70.681247	-33.443162	2.1     	20.1      	236.12	419.82 	5.3     	68.0         	033        	694      	0.038064 
118       	883.3  	19.2  	32    	2.4     	211   	1181   	1179      	-70.681212	-33.443127	2.0     	20.1      	235.85	421.20 	5.3     	68.0         	034        	705      	0.037813 
120       	882.2  	19.2  	32    	2.4     	211   	1191   	1190      	-70.681178	-33.443092	1.9     	20.1      	235.56	422.58 	5.3     	67.9         	034        	717      	0.037558 
122       	881.2  	19.2  	31    	2.4     	212   	1202   	1200      	-70.681143	-33.443057	1.8     	20.1      	235.27	423.94 	5.3     	67.8         	034        	729      	0.037302 
124       	880.1  	19.2  	31    	2.5     	213   	1212   	1211      	-70.681108	-33.443022	1.7     	20.1      	234.97	425.29 	5.3     	67.8         	034        	740      	0.037047 
126       	879.0  	19.2  	31    	2.5     	214   	1223   	1221      	-70.681074	-33.442987	1.6     	20.1      	234.67	426.65 	5.3     	67.7         	034        	752      	0.036792 
128       	877.9  	19.2  	31    	2.5     	215   	1233   	1232      	-70.681039	-33.442952	1.6     	20.1      	234.37	428.00 	5.3     	67.7         	034        	764      	0.036537 
130       	876.9  	19.2  	31    	2.6     	216   	1244   	1242      	-70.681004	-33.442917	1.5     	20.0      	234.09	429.38 	5.3     	67.6         	034        	775      	0.036374 
132       	875.8  	19.1  	30    	2.6     	218   	1254   	1253      	-70.680970	-33.442882	1.4     	20.0      	233.84	430.79 	5.3     	67.6         	034        	787      	0.036271 
134       	874.7  	19.1  	30    	2.6     	220   	1265   	1263      	-70.680935	-33.442846	1.3     	19.9      	233.60	432.20 	5.3     	67.6         	034        	799      	0.036167 
136       	873.6  	19.0  	30    	2.6     	223   	1276   	1274      	-70.680901	-33.442811	1.2     	19.9      	233.35	433.61 	5.3     	67.5         	034        	810      	0.036064 
138       	872.4  	19.0  	30    	2.6     	225   	1287   	1285      	-70.680863	-33.442786	1.1     	19.8      	233.07	435.15 	5.8     	67.5         	035        	823      	0.035961 
140       	871.1  	18.9  	30    	2.6     	228   	1299   	1297      	-70.680824	-33.442764	1.0     	19.7      	232.79	436.73 	6.0     	67.6         	035        	835      	0.035858 
142       	869.9  	18.8  	30    	2.6     	230   	1311   	1309      	-70.680785	-33.442742	0.9     	19.7      	232.50	438.31 	6.0     	67.6         	035        	848      	0.035754 
144       	868.7  	18.8  	30    	2.6     	233   	1323   	1321      	-70.680747	-33.442720	0.8     	19.6      	232.21	439.89 	6.0     	67.7         	036        	860      	0.035549 
146       	867.5  	18.7  	30    	2.6     	235   	1335   	1333      	-70.680708	-33.442698	0.7     	19.6      	231.91	441.46 	6.0     	67.7         	036        	873      	0.035329 
148       	866.2  	18.7  	29    	2.5     	237   	1347   	1345      	-70.680669	-33.442676	0.5     	19.5      	231.62	443.03 	6.0     	67.8         	036        	886      	0.035110 
150       	865.0  	18.6  	29    	2.6     	240   	1359   	1357      	-70.680631	-33.442654	0.4     	19.4      	231.33	444.61 	6.0     	67.8         	036        	898      	0.034890 
152       	863.8  	18.6  	29    	2.5     	239   	1370   	1369      	-70.680592	-33.442632	0.3     	19.4      	231.04	446.20 	6.0     	67.9         	037        	911      	0.034670 
154       	862.6  	18.5  	29    	2.4     	238   	1382   	1381      	-70.680553	-33.442610	0.1     	19.3      	230.76	447.78 	6.0     	67.9         	037        	923      	0.034450 
156       	861.5  	18.5  	29    	2.4     	238   	1394   	1392      	-70.680514	-33.442588	0.0     	19.3      	230.48	449.37 	6.0     	68.0         	037        	936      	0.034331 
158       	860.3  	18.4  	29    	2.3     	237   	1406   	1404      	-70.680476	-33.442566	0.2     	19.2      	230.23	450.98 	6.0     	68.0         	037        	948      	0.034768 
160       	859.1  	18.4  	29    	2.2     	236   	1418   	1416      	-70.680437	-33.442544	0.3     	19.2      	229.97	452.60 	6.0     	68.0         	037        	961      	0.035205 
162       	857.9  	18.3  	30    	2.2     	235   	1430   	1428      	-70.680398	-33.442522	0.4     	19.1      	229.72	454.21 	6.0     	68.1         	038        	974      	0.035642 
164       	856.7  	18.3  	30    	2.1     	234   	1442   	1440      	-70.680360	-33.442500	0.5     	19.1      	229.47	455.83 	6.0     	68.1         	038        	986      	0.036079 
166       	855.6  	18.2  	31    	2.1     	233   	1454   	1452      	-70.680321	-33.442478	0.6     	19.0      	229.22	457.45 	6.0     	68.1         	038        	999      	0.036516 
168       	854.5  	18.1  	31    	2.0     	232   	1465   	1463      	-70.680283	-33.442442	0.7     	19.0      	229.00	458.94 	5.4     	68.1         	038        	1011     	0.036957 
170       	853.3  	18.0  	31    	1.9     	231   	1475   	1473      	-70.680245	-33.442403	0.8     	18.9      	228.77	460.38 	5.3     	68.0         	038        	1023     	0.037250 
172       	852.2  	18.0  	31    	2.0     	228   	1486   	1484      	-70.680207	-33.442363	0.7     	18.8      	228.54	461.79 	5.3     	68.0         	038        	1035     	0.037349 
174       	851.1  	17.9  	31    	2.1     	226   	1496   	1494      	-70.680170	-33.442323	0.7     	18.7      	228.30	463.22 	5.3     	67.9         	038        	1046     	0.037447 
176       	849.9  	17.8  	31    	2.1     	224   	1507   	1505      	-70.680132	-33.442284	0.6     	18.6      	228.07	464.65 	5.3     	67.8         	038        	1058     	0.037546 
178       	848.9  	17.7  	31    	2.2     	222   	1517   	1515      	-70.680094	-33.442244	0.6     	18.5      	227.86	466.10 	5.3     	67.8         	038        	1070     	0.037645 
180       	847.9  	17.6  	31    	2.3     	221   	1528   	1526      	-70.680056	-33.442204	0.6     	18.5      	227.67	467.56 	5.3     	67.7         	038        	1082     	0.037743 
182       	847.0  	17.6  	32    	2.4     	219   	1539   	1537      	-70.680018	-33.442165	0.5     	18.4      	227.47	469.03 	5.3     	67.6         	038        	1094     	0.037841 
184       	846.0  	17.5  	32    	2.4     	217   	1549   	1547      	-70.679981	-33.442125	0.5     	18.3      	227.27	470.49 	5.3     	67.6         	038        	1106     	0.037863 
186       	845.0  	17.4  	32    	2.5     	216   	1560   	1558      	-70.679943	-33.442086	0.4     	18.2      	227.07	471.94 	5.3     	67.5         	038        	1118     	0.037854 
188       	844.1  	17.4  	32    	2.6     	215   	1570   	1568      	-70.679905	-33.442046	0.3     	18.2      	226.87	473.41 	5.3     	67.4         	038        	1130     	0.037845 
190       	843.1  	17.3  	32    	2.6     	213   	1581   	1579      	-70.679867	-33.442006	0.3     	18.1      	226.67	474.87 	5.3     	67.4         	038        	1142     	0.037836 
192       	842.0  	17.2  	32    	2.7     	214   	1591   	1589      	-70.679829	-33.441967	0.2     	18.0      	226.44	476.29 	5.3     	67.3         	038        	1154     	0.037827 
194       	841.0  	17.1  	32    	2.8     	214   	1602   	1600      	-70.679791	-33.441927	0.1     	17.9      	226.21	477.72 	5.3     	67.3         	038        	1166     	0.037818 
196       	839.9  	17.1  	31    	2.9     	215   	1613   	1610      	-70.679754	-33.441888	0.1     	17.9      	225.98	479.16 	5.3     	67.2         	038        	1178     	0.037809 
198       	838.8  	17.0  	32    	3.0     	216   	1623   	1621      	-70.679720	-33.441843	0.0     	17.8      	225.75	480.59 	5.3     	67.2         	038        	1190     	0.037838 
200       	837.7  	16.9  	32    	3.1     	216   	1634   	1632      	-70.679689	-33.441795	-0.1    	17.7      	225.52	482.03 	5.3     	67.1         	038        	1202     	0.037866 
202       	836.7  	16.8  	32    	3.1     	217   	1644   	1642      	-70.679659	-33.441747	-0.1    	17.6      	225.29	483.47 	5.3     	67.0         	038        	1214     	0.037895 
204       	835.6  	16.8  	32    	3.2     	217   	1655   	1653      	-70.679628	-33.441699	-0.2    	17.6      	225.06	484.91 	5.3     	67.0         	038        	1226     	0.037922 
206       	834.5  	16.7  	32    	3.3     	217   	1666   	1663      	-70.679597	-33.441652	-0.2    	17.5      	224.81	486.32 	5.3     	66.9         	038        	1238     	0.037947 
208       	833.5  	16.7  	32    	3.4     	218   	1676   	1674      	-70.679567	-33.441604	-0.2    	17.5      	224.56	487.74 	5.3     	66.9         	038        	1250     	0.037972 
210       	832.4  	16.6  	32    	3.5     	218   	1687   	1685      	-70.679536	-33.441556	-0.3    	17.4      	224.31	489.16 	5.3     	66.8         	037        	1262     	0.038018 
212       	831.4  	16.6  	32    	3.4     	217   	1698   	1695      	-70.679505	-33.441508	-0.3    	17.4      	224.07	490.58 	5.3     	66.7         	037        	1274     	0.038122 
214       	830.3  	16.5  	32    	3.3     	216   	1708   	1706      	-70.679474	-33.441460	-0.3    	17.3      	223.82	492.01 	5.3     	66.7         	037        	1286     	0.038227 
216       	829.2  	16.5  	32    	3.3     	214   	1719   	1717      	-70.679444	-33.441413	-0.3    	17.3      	223.58	493.43 	5.3     	66.6         	037        	1299     	0.038331 
